# column 1: lambda (micron)
# column 2: total kappa_ext (m2/kg)
# column 3: total kappa_abs (m2/kg)
# column 4: total kappa_sca (m2/kg)
# column 5: mean asymmpar
#lambda      ext          abs          sca          asy
1.000000e-03 6.777918e+02 3.547550e+02 3.230368e+02 9.999491e-01
1.071891e-03 7.814090e+02 4.200293e+02 3.613797e+02 9.999402e-01
1.148951e-03 8.844537e+02 4.934136e+02 3.910401e+02 9.999272e-01
1.231551e-03 9.929317e+02 5.756032e+02 4.173285e+02 9.999119e-01
1.320088e-03 1.106923e+03 6.659227e+02 4.410005e+02 9.998953e-01
1.414991e-03 1.214646e+03 7.646062e+02 4.500398e+02 9.998716e-01
1.516717e-03 1.255719e+03 8.087112e+02 4.470081e+02 9.998546e-01
1.625756e-03 1.155390e+03 7.451622e+02 4.102280e+02 9.998411e-01
1.742633e-03 1.100148e+03 6.529309e+02 4.472175e+02 9.998221e-01
1.867914e-03 1.296353e+03 7.507220e+02 5.456307e+02 9.997790e-01
2.002200e-03 1.447162e+03 8.566723e+02 5.904895e+02 9.997299e-01
2.146141e-03 1.557418e+03 9.674422e+02 5.899756e+02 9.996845e-01
2.300430e-03 1.300308e+03 7.513137e+02 5.489943e+02 9.996744e-01
2.465811e-03 1.252727e+03 5.787863e+02 6.739410e+02 9.996420e-01
2.643081e-03 1.519165e+03 6.641943e+02 8.549709e+02 9.995547e-01
2.833096e-03 1.720445e+03 7.621222e+02 9.583226e+02 9.994474e-01
3.036771e-03 1.911619e+03 8.653673e+02 1.046252e+03 9.993302e-01
3.255089e-03 2.099654e+03 9.745898e+02 1.125065e+03 9.991808e-01
3.489101e-03 2.294184e+03 1.094397e+03 1.199788e+03 9.989969e-01
3.739937e-03 2.492154e+03 1.223328e+03 1.268827e+03 9.987512e-01
4.008806e-03 2.689912e+03 1.359738e+03 1.330173e+03 9.984987e-01
4.297005e-03 2.799381e+03 1.424273e+03 1.375108e+03 9.981337e-01
4.605922e-03 2.948647e+03 1.512861e+03 1.435786e+03 9.977540e-01
4.937048e-03 3.200891e+03 1.668578e+03 1.532314e+03 9.973502e-01
5.291979e-03 3.454348e+03 1.832263e+03 1.622085e+03 9.968019e-01
5.672426e-03 3.690129e+03 2.005000e+03 1.685129e+03 9.960758e-01
6.080224e-03 3.919954e+03 2.185016e+03 1.734938e+03 9.952907e-01
6.517340e-03 4.143377e+03 2.370124e+03 1.773253e+03 9.945287e-01
6.985880e-03 4.357731e+03 2.563019e+03 1.794712e+03 9.935976e-01
7.488104e-03 4.421038e+03 2.615536e+03 1.805502e+03 9.928191e-01
8.026434e-03 4.684831e+03 2.808185e+03 1.876646e+03 9.914119e-01
8.603464e-03 4.917728e+03 3.009372e+03 1.908356e+03 9.897974e-01
9.221979e-03 5.132084e+03 3.212446e+03 1.919638e+03 9.881487e-01
9.884959e-03 5.307470e+03 3.416320e+03 1.891150e+03 9.865385e-01
1.059560e-02 5.313827e+03 3.620694e+03 1.693133e+03 9.854511e-01
1.135733e-02 5.128535e+03 3.253441e+03 1.875093e+03 9.842465e-01
1.217383e-02 5.393154e+03 3.435665e+03 1.957488e+03 9.814312e-01
1.304902e-02 5.521861e+03 3.559829e+03 1.962032e+03 9.789826e-01
1.398713e-02 5.638576e+03 3.603633e+03 2.034943e+03 9.760287e-01
1.499268e-02 5.852750e+03 3.747842e+03 2.104908e+03 9.722569e-01
1.607053e-02 6.054693e+03 3.905377e+03 2.149315e+03 9.681215e-01
1.722586e-02 6.251103e+03 4.068441e+03 2.182662e+03 9.636185e-01
1.846425e-02 6.423006e+03 4.248307e+03 2.174699e+03 9.591218e-01
1.979167e-02 6.424145e+03 4.221695e+03 2.202450e+03 9.549514e-01
2.121452e-02 6.634528e+03 4.347844e+03 2.286683e+03 9.482722e-01
2.273966e-02 6.838926e+03 4.499694e+03 2.339231e+03 9.413308e-01
2.437444e-02 7.057516e+03 4.649502e+03 2.408014e+03 9.332613e-01
2.612675e-02 7.345270e+03 4.876036e+03 2.469234e+03 9.239646e-01
2.800504e-02 7.616558e+03 5.102178e+03 2.514379e+03 9.142842e-01
3.001836e-02 7.877817e+03 5.326688e+03 2.551129e+03 9.039952e-01
3.217642e-02 8.128195e+03 5.545523e+03 2.582672e+03 8.933007e-01
3.448962e-02 8.367591e+03 5.757413e+03 2.610178e+03 8.821012e-01
3.696913e-02 8.586756e+03 5.953027e+03 2.633729e+03 8.707351e-01
3.962689e-02 8.798448e+03 6.125629e+03 2.672819e+03 8.577585e-01
4.247572e-02 9.022539e+03 6.296415e+03 2.726124e+03 8.424008e-01
4.552935e-02 9.267598e+03 6.478913e+03 2.788685e+03 8.253408e-01
4.880252e-02 9.540743e+03 6.663108e+03 2.877635e+03 8.058781e-01
5.231099e-02 9.886940e+03 6.862984e+03 3.023956e+03 7.820436e-01
5.607170e-02 1.040316e+04 7.118091e+03 3.285067e+03 7.495853e-01
6.010277e-02 1.235623e+04 8.242219e+03 4.114007e+03 6.781104e-01
6.442364e-02 1.629332e+04 1.152487e+04 4.768450e+03 6.253447e-01
6.905514e-02 1.826094e+04 1.335354e+04 4.907396e+03 6.075814e-01
7.401960e-02 1.855779e+04 1.367066e+04 4.887128e+03 5.984025e-01
7.934097e-02 1.768315e+04 1.294932e+04 4.733824e+03 5.969076e-01
8.504489e-02 1.644099e+04 1.197009e+04 4.470900e+03 6.011315e-01
9.115888e-02 1.583636e+04 1.147357e+04 4.362789e+03 5.937692e-01
9.771242e-02 1.512779e+04 1.070407e+04 4.423714e+03 5.796354e-01
1.047371e-01 1.385008e+04 9.534333e+03 4.315751e+03 5.793423e-01
1.122668e-01 1.264213e+04 8.534025e+03 4.108105e+03 5.865422e-01
1.203378e-01 1.169412e+04 7.748723e+03 3.945392e+03 5.906696e-01
1.289890e-01 1.087660e+04 7.046916e+03 3.829686e+03 5.908262e-01
1.382622e-01 1.016549e+04 6.397809e+03 3.767684e+03 5.860782e-01
1.482021e-01 9.335773e+03 5.497280e+03 3.838493e+03 5.775044e-01
1.588565e-01 8.297572e+03 4.307118e+03 3.990454e+03 5.732757e-01
1.702769e-01 7.309420e+03 3.167626e+03 4.141794e+03 5.656725e-01
1.825183e-01 6.541010e+03 2.287844e+03 4.253167e+03 5.549164e-01
1.956398e-01 5.965353e+03 1.674428e+03 4.290925e+03 5.462437e-01
2.097046e-01 5.527889e+03 1.316364e+03 4.211525e+03 5.419563e-01
2.247806e-01 5.057707e+03 1.098294e+03 3.959413e+03 5.434718e-01
2.409404e-01 4.601623e+03 9.639771e+02 3.637646e+03 5.490378e-01
2.582619e-01 4.193178e+03 8.738853e+02 3.319293e+03 5.524003e-01
2.768287e-01 3.855894e+03 8.111261e+02 3.044768e+03 5.560562e-01
2.967302e-01 3.562861e+03 7.630167e+02 2.799844e+03 5.591481e-01
3.180626e-01 3.299354e+03 7.152776e+02 2.584076e+03 5.616543e-01
3.409285e-01 3.056174e+03 6.729887e+02 2.383185e+03 5.635647e-01
3.654383e-01 2.832764e+03 6.319213e+02 2.200843e+03 5.651839e-01
3.917101e-01 2.626145e+03 5.942309e+02 2.031914e+03 5.661723e-01
4.198707e-01 2.426118e+03 5.570705e+02 1.869048e+03 5.656600e-01
4.500558e-01 2.236767e+03 5.221879e+02 1.714579e+03 5.643023e-01
4.824109e-01 2.048662e+03 4.883467e+02 1.560315e+03 5.604295e-01
5.170920e-01 1.872063e+03 4.571164e+02 1.414947e+03 5.551058e-01
5.542665e-01 1.703987e+03 4.275402e+02 1.276446e+03 5.478114e-01
5.941134e-01 1.544670e+03 3.995115e+02 1.145159e+03 5.382830e-01
6.368250e-01 1.394801e+03 3.730611e+02 1.021740e+03 5.267542e-01
6.826072e-01 1.253931e+03 3.479660e+02 9.059649e+02 5.125658e-01
7.316807e-01 1.125051e+03 3.244119e+02 8.006389e+02 4.967512e-01
7.842822e-01 1.006666e+03 3.020530e+02 7.046133e+02 4.791497e-01
8.406653e-01 8.998700e+02 2.813905e+02 6.184796e+02 4.602241e-01
9.011018e-01 8.018665e+02 2.615891e+02 5.402774e+02 4.402515e-01
9.658832e-01 7.145507e+02 2.434327e+02 4.711180e+02 4.194520e-01
1.035322e+00 6.361377e+02 2.263879e+02 4.097498e+02 3.974922e-01
1.109752e+00 5.667885e+02 2.106105e+02 3.561780e+02 3.743746e-01
1.189534e+00 5.060823e+02 1.961634e+02 3.099189e+02 3.498716e-01
1.275051e+00 4.522878e+02 1.827259e+02 2.695620e+02 3.260918e-01
1.366716e+00 4.061228e+02 1.706247e+02 2.354981e+02 3.032992e-01
1.464971e+00 3.657255e+02 1.594767e+02 2.062488e+02 2.834193e-01
1.570290e+00 3.304614e+02 1.492916e+02 1.811697e+02 2.662632e-01
1.683180e+00 2.988920e+02 1.397322e+02 1.591598e+02 2.504713e-01
1.804186e+00 2.704848e+02 1.308667e+02 1.396181e+02 2.361644e-01
1.933892e+00 2.449952e+02 1.227043e+02 1.222909e+02 2.215660e-01
2.072922e+00 2.219015e+02 1.150255e+02 1.068760e+02 2.063625e-01
2.221947e+00 2.010025e+02 1.078366e+02 9.316585e+01 1.900536e-01
2.381686e+00 1.817828e+02 1.010066e+02 8.077620e+01 1.724091e-01
2.552908e+00 1.641424e+02 9.451311e+01 6.962934e+01 1.531720e-01
2.736440e+00 1.480327e+02 8.837946e+01 5.965322e+01 1.326320e-01
2.933166e+00 1.333076e+02 8.257566e+01 5.073196e+01 1.109481e-01
3.144035e+00 1.199276e+02 7.709778e+01 4.282985e+01 8.841873e-02
3.370064e+00 1.078685e+02 7.203385e+01 3.583464e+01 6.585885e-02
3.612343e+00 9.664228e+01 6.699408e+01 2.964820e+01 4.359499e-02
3.872039e+00 8.654476e+01 6.223236e+01 2.431239e+01 2.259106e-02
4.150405e+00 7.747149e+01 5.772658e+01 1.974491e+01 2.986085e-03
4.448783e+00 6.930857e+01 5.344009e+01 1.586848e+01 -1.458456e-02
4.768612e+00 6.219951e+01 4.960442e+01 1.259509e+01 -2.951027e-02
5.111433e+00 5.619270e+01 4.631677e+01 9.875937e+00 -4.205955e-02
5.478901e+00 5.136136e+01 4.369960e+01 7.661760e+00 -5.279127e-02
5.872787e+00 4.771731e+01 4.183287e+01 5.884436e+00 -6.154814e-02
6.294989e+00 4.501342e+01 4.053750e+01 4.475929e+00 -6.952855e-02
6.747544e+00 4.238386e+01 3.901393e+01 3.369935e+00 -7.340966e-02
7.232634e+00 4.258316e+01 4.006764e+01 2.515526e+00 -7.720438e-02
7.752597e+00 6.459478e+01 6.272487e+01 1.869910e+00 -7.951056e-02
8.309942e+00 1.445991e+02 1.431875e+02 1.411566e+00 -7.936305e-02
8.907355e+00 2.524689e+02 2.513680e+02 1.100944e+00 -7.563011e-02
9.547716e+00 3.290523e+02 3.281543e+02 8.979778e-01 -6.773188e-02
1.023411e+01 2.781799e+02 2.774852e+02 6.947326e-01 -6.323707e-02
1.096986e+01 2.097252e+02 2.092028e+02 5.224539e-01 -6.053764e-02
1.175850e+01 1.531350e+02 1.527468e+02 3.882535e-01 -5.845865e-02
1.260383e+01 1.100017e+02 1.097167e+02 2.849753e-01 -5.719077e-02
1.350994e+01 8.148471e+01 8.127681e+01 2.079003e-01 -5.712679e-02
1.448118e+01 7.428054e+01 7.412920e+01 1.513405e-01 -5.676388e-02
1.552225e+01 8.655953e+01 8.644694e+01 1.125943e-01 -5.506690e-02
1.663817e+01 1.037306e+02 1.036447e+02 8.592660e-02 -5.230344e-02
1.783431e+01 1.160019e+02 1.159349e+02 6.696906e-02 -4.893416e-02
1.911644e+01 1.122436e+02 1.121911e+02 5.253772e-02 -4.600183e-02
2.049075e+01 9.765360e+01 9.761309e+01 4.050861e-02 -4.475135e-02
2.196385e+01 8.381375e+01 8.378277e+01 3.097994e-02 -4.418417e-02
2.354286e+01 7.235681e+01 7.233316e+01 2.364530e-02 -4.343296e-02
2.523539e+01 6.285531e+01 6.283719e+01 1.811650e-02 -4.337792e-02
2.704960e+01 5.463393e+01 5.462004e+01 1.389045e-02 -4.329312e-02
2.899423e+01 4.765891e+01 4.764822e+01 1.068321e-02 -4.273417e-02
3.107866e+01 4.166392e+01 4.165567e+01 8.242713e-03 -4.179151e-02
3.331295e+01 3.650913e+01 3.650276e+01 6.371810e-03 -4.057326e-02
3.570786e+01 3.215692e+01 3.215200e+01 4.923088e-03 -3.886146e-02
3.827494e+01 2.831263e+01 2.830883e+01 3.803336e-03 -3.685048e-02
4.102658e+01 2.477717e+01 2.477424e+01 2.936187e-03 -3.470361e-02
4.397604e+01 2.160878e+01 2.160652e+01 2.261155e-03 -3.238314e-02
4.713753e+01 1.880365e+01 1.880192e+01 1.737131e-03 -2.908457e-02
5.052631e+01 1.632490e+01 1.632357e+01 1.330273e-03 -2.439195e-02
5.415871e+01 1.414250e+01 1.414148e+01 1.016221e-03 -1.802461e-02
5.805226e+01 1.223017e+01 1.222939e+01 7.748545e-04 -1.105511e-02
6.222571e+01 1.055874e+01 1.055815e+01 5.899274e-04 -3.891604e-03
6.669920e+01 9.098326e+00 9.097878e+00 4.481480e-04 2.970239e-03
7.149429e+01 7.838186e+00 7.837845e+00 3.401886e-04 8.748587e-03
7.663411e+01 6.746287e+00 6.746029e+00 2.580440e-04 1.306755e-02
8.214344e+01 5.805065e+00 5.804869e+00 1.955707e-04 1.557434e-02
8.804884e+01 4.999690e+00 4.999542e+00 1.482012e-04 1.580644e-02
9.437878e+01 4.309385e+00 4.309273e+00 1.122561e-04 1.437449e-02
1.011638e+02 3.716484e+00 3.716399e+00 8.498394e-05 1.217770e-02
1.084366e+02 3.208855e+00 3.208791e+00 6.430830e-05 9.284100e-03
1.162322e+02 2.781086e+00 2.781038e+00 4.873535e-05 6.206882e-03
1.245883e+02 2.415289e+00 2.415252e+00 3.684007e-05 3.378864e-03
1.335452e+02 2.113228e+00 2.113200e+00 2.796218e-05 1.031915e-03
1.431459e+02 1.836476e+00 1.836455e+00 2.148825e-05 -8.505956e-04
1.534368e+02 1.577338e+00 1.577322e+00 1.629725e-05 -2.373042e-03
1.644676e+02 1.362479e+00 1.362467e+00 1.232200e-05 -3.581004e-03
1.762914e+02 1.179829e+00 1.179819e+00 9.309595e-06 -4.562751e-03
1.889652e+02 1.024238e+00 1.024230e+00 7.053165e-06 -5.365457e-03
2.025502e+02 8.889203e-01 8.889150e-01 5.332183e-06 -6.010096e-03
2.171118e+02 7.726324e-01 7.726284e-01 4.038748e-06 -6.546340e-03
2.327202e+02 6.716826e-01 6.716796e-01 3.058278e-06 -6.993041e-03
2.494508e+02 5.841915e-01 5.841891e-01 2.316652e-06 -7.373199e-03
2.673842e+02 5.080903e-01 5.080886e-01 1.755132e-06 -7.676130e-03
2.866068e+02 4.417540e-01 4.417527e-01 1.328192e-06 -7.937838e-03
3.072113e+02 3.843919e-01 3.843909e-01 1.006136e-06 -8.140545e-03
3.292971e+02 3.347152e-01 3.347144e-01 7.625257e-07 -8.312894e-03
3.529707e+02 2.914203e-01 2.914197e-01 5.774414e-07 -8.451660e-03
3.783463e+02 2.537368e-01 2.537364e-01 4.372618e-07 -8.564732e-03
4.055461e+02 2.210261e-01 2.210257e-01 3.313227e-07 -8.644651e-03
4.347013e+02 1.925408e-01 1.925405e-01 2.510038e-07 -8.697882e-03
4.659526e+02 1.677732e-01 1.677730e-01 1.901828e-07 -8.725634e-03
4.994505e+02 1.461986e-01 1.461984e-01 1.440415e-07 -8.729219e-03
5.353567e+02 1.274308e-01 1.274307e-01 1.090930e-07 -8.729719e-03
5.738442e+02 1.111006e-01 1.111006e-01 8.262464e-08 -8.685834e-03
6.150986e+02 9.691429e-02 9.691423e-02 6.261102e-08 -8.639435e-03
6.593188e+02 8.452208e-02 8.452203e-02 4.741144e-08 -8.579446e-03
7.067181e+02 7.374120e-02 7.374116e-02 3.590735e-08 -8.480107e-03
7.575250e+02 6.436382e-02 6.436379e-02 2.720866e-08 -8.354035e-03
8.119845e+02 5.617954e-02 5.617952e-02 2.060854e-08 -8.235882e-03
8.703591e+02 4.905561e-02 4.905559e-02 1.561449e-08 -8.078786e-03
9.329304e+02 4.284009e-02 4.284008e-02 1.182867e-08 -7.913971e-03
1.000000e+03 3.741866e-02 3.741865e-02 8.958741e-09 -7.732807e-03
